freq,psd_x,psd_y,psd_z,psd_xyz
0.0,1.088e+03,4.701e+02,7.848e+01,1.637e+03
1.5,6.475e+02,5.836e+02,1.023e+02,1.333e+03
3.1,8.779e+01,6.888e+02,7.732e+01,8.539e+02
4.6,3.720e+02,7.828e+02,7.464e+01,1.229e+03
6.2,1.126e+03,7.494e+02,7.383e+01,1.949e+03
7.7,1.797e+03,1.031e+03,8.188e+01,2.910e+03
9.3,2.516e+03,1.305e+03,8.571e+01,3.906e+03
10.8,3.385e+03,1.438e+03,8.893e+01,4.912e+03
12.4,4.488e+03,1.574e+03,8.110e+01,6.143e+03
13.9,5.661e+03,1.639e+03,7.664e+01,7.377e+03
15.5,6.433e+03,1.958e+03,8.181e+01,8.474e+03
17.0,7.130e+03,2.464e+03,8.097e+01,9.675e+03
18.6,8.504e+03,2.643e+03,8.028e+01,1.123e+04
20.1,1.015e+04,2.815e+03,7.918e+01,1.304e+04
21.7,1.180e+04,3.050e+03,8.195e+01,1.493e+04
23.2,1.354e+04,3.391e+03,7.535e+01,1.701e+04
24.8,1.541e+04,3.967e+03,8.441e+01,1.946e+04
26.3,1.747e+04,4.400e+03,9.263e+01,2.196e+04
27.9,1.967e+04,5.061e+03,1.085e+02,2.484e+04
29.4,2.194e+04,5.581e+03,1.248e+02,2.765e+04
31.0,2.470e+04,6.087e+03,1.299e+02,3.091e+04
32.5,2.767e+04,6.887e+03,1.287e+02,3.468e+04
34.1,3.115e+04,8.128e+03,1.611e+02,3.944e+04
35.6,3.451e+04,9.068e+03,1.804e+02,4.376e+04
37.1,3.890e+04,1.030e+04,2.038e+02,4.941e+04
38.7,4.289e+04,1.184e+04,2.998e+02,5.502e+04
40.2,4.676e+04,1.300e+04,4.177e+02,6.018e+04
41.8,5.064e+04,1.403e+04,6.372e+02,6.531e+04
43.3,5.285e+04,1.516e+04,9.421e+02,6.895e+04
44.9,5.740e+04,1.686e+04,1.203e+03,7.547e+04
46.4,6.559e+04,1.876e+04,1.013e+03,8.536e+04
48.0,7.225e+04,1.962e+04,6.897e+02,9.255e+04
49.5,7.087e+04,1.808e+04,5.284e+02,8.949e+04
51.1,7.232e+04,1.767e+04,5.362e+02,9.053e+04
52.6,8.164e+04,2.015e+04,5.398e+02,1.023e+05
54.2,9.184e+04,2.296e+04,5.635e+02,1.154e+05
55.7,1.007e+05,2.560e+04,6.078e+02,1.269e+05
57.3,1.067e+05,2.739e+04,6.972e+02,1.348e+05
58.8,1.169e+05,3.069e+04,8.696e+02,1.484e+05
60.4,1.318e+05,3.543e+04,1.160e+03,1.684e+05
61.9,1.484e+05,4.139e+04,1.708e+03,1.915e+05
63.5,1.660e+05,4.843e+04,2.502e+03,2.170e+05
65.0,1.848e+05,5.656e+04,3.650e+03,2.450e+05
66.6,1.999e+05,6.384e+04,5.755e+03,2.695e+05
68.1,2.083e+05,6.887e+04,8.140e+03,2.853e+05
69.6,2.315e+05,8.299e+04,1.602e+04,3.305e+05
71.2,2.655e+05,1.036e+05,3.345e+04,4.025e+05
72.7,2.967e+05,1.181e+05,5.449e+04,4.693e+05
74.3,3.242e+05,1.290e+05,7.875e+04,5.320e+05
75.8,3.565e+05,1.385e+05,1.011e+05,5.960e+05
77.4,3.907e+05,1.479e+05,1.162e+05,6.548e+05
78.9,4.295e+05,1.584e+05,1.338e+05,7.217e+05
80.5,4.707e+05,1.665e+05,1.495e+05,7.867e+05
82.0,5.098e+05,1.709e+05,1.560e+05,8.367e+05
83.6,5.719e+05,1.773e+05,1.647e+05,9.138e+05
85.1,6.566e+05,1.902e+05,1.810e+05,1.028e+06
86.7,7.651e+05,2.106e+05,1.984e+05,1.174e+06
88.2,9.105e+05,2.369e+05,2.187e+05,1.366e+06
89.8,1.068e+06,2.624e+05,2.311e+05,1.562e+06
91.3,1.228e+06,2.816e+05,2.379e+05,1.748e+06
92.9,1.425e+06,2.967e+05,2.344e+05,1.957e+06
94.4,1.635e+06,3.099e+05,2.208e+05,2.166e+06
96.0,1.830e+06,3.450e+05,2.158e+05,2.391e+06
97.5,2.071e+06,3.943e+05,2.156e+05,2.681e+06
99.1,2.383e+06,4.652e+05,2.146e+05,3.062e+06
100.6,2.853e+06,5.526e+05,2.282e+05,3.634e+06
102.2,3.608e+06,6.841e+05,2.655e+05,4.557e+06
103.7,4.638e+06,8.809e+05,3.133e+05,5.832e+06
105.2,5.759e+06,1.093e+06,3.503e+05,7.203e+06
106.8,8.249e+06,1.711e+06,4.171e+05,1.038e+07
108.3,1.090e+07,2.583e+06,4.605e+05,1.394e+07
109.9,1.201e+07,3.163e+06,4.294e+05,1.560e+07
111.4,1.168e+07,3.267e+06,3.645e+05,1.531e+07
113.0,1.107e+07,3.319e+06,2.959e+05,1.468e+07
114.5,9.210e+06,2.775e+06,2.211e+05,1.221e+07
116.1,7.989e+06,2.436e+06,1.690e+05,1.059e+07
117.6,7.821e+06,2.604e+06,1.411e+05,1.057e+07
119.2,7.487e+06,2.661e+06,1.153e+05,1.026e+07
120.7,7.042e+06,2.633e+06,1.002e+05,9.776e+06
122.3,6.259e+06,2.425e+06,8.052e+04,8.765e+06
123.8,5.472e+06,2.072e+06,6.003e+04,7.604e+06
125.4,4.749e+06,1.751e+06,4.352e+04,6.544e+06
126.9,4.197e+06,1.612e+06,4.021e+04,5.848e+06
128.5,3.739e+06,1.574e+06,4.727e+04,5.360e+06
130.0,3.459e+06,1.566e+06,4.501e+04,5.070e+06
131.6,2.998e+06,1.395e+06,3.105e+04,4.424e+06
133.1,1.420e+06,6.602e+05,1.386e+04,2.094e+06
134.7,1.596e+05,6.654e+04,2.396e+03,2.285e+05
136.2,5.884e+04,2.058e+04,1.356e+03,8.077e+04
137.7,5.033e+04,1.703e+04,1.247e+03,6.860e+04
139.3,4.335e+04,1.468e+04,1.214e+03,5.924e+04
140.8,3.755e+04,1.365e+04,1.228e+03,5.243e+04
142.4,3.335e+04,1.390e+04,1.202e+03,4.845e+04
143.9,2.969e+04,1.569e+04,1.209e+03,4.659e+04
145.5,2.672e+04,1.894e+04,1.163e+03,4.682e+04
147.0,2.555e+04,2.367e+04,1.053e+03,5.028e+04
148.6,2.856e+04,3.079e+04,8.853e+02,6.023e+04
150.1,3.227e+04,3.709e+04,6.612e+02,7.002e+04
151.7,2.981e+04,3.608e+04,6.959e+02,6.659e+04
153.2,2.619e+04,3.248e+04,7.854e+02,5.946e+04
154.8,2.274e+04,3.009e+04,8.301e+02,5.366e+04
156.3,1.985e+04,2.820e+04,8.834e+02,4.894e+04
157.9,1.757e+04,2.630e+04,7.682e+02,4.464e+04
159.4,1.525e+04,2.437e+04,7.188e+02,4.035e+04
161.0,1.347e+04,2.312e+04,7.680e+02,3.736e+04
162.5,1.193e+04,2.136e+04,8.813e+02,3.417e+04
164.1,1.093e+04,2.117e+04,1.244e+03,3.334e+04
165.6,1.042e+04,2.158e+04,1.471e+03,3.347e+04
167.2,1.054e+04,2.291e+04,1.376e+03,3.482e+04
168.7,1.079e+04,2.425e+04,1.252e+03,3.629e+04
170.3,1.252e+04,2.843e+04,1.098e+03,4.205e+04
171.8,1.802e+04,3.978e+04,1.202e+03,5.900e+04
173.3,2.196e+04,4.695e+04,1.314e+03,7.022e+04
174.9,2.149e+04,4.525e+04,1.426e+03,6.817e+04
176.4,2.063e+04,4.408e+04,1.583e+03,6.629e+04
178.0,1.946e+04,4.270e+04,1.684e+03,6.384e+04
179.5,1.842e+04,4.160e+04,1.766e+03,6.179e+04
181.1,1.795e+04,4.086e+04,1.793e+03,6.061e+04
182.6,1.792e+04,4.092e+04,1.924e+03,6.076e+04
184.2,1.791e+04,3.981e+04,2.100e+03,5.982e+04
185.7,1.776e+04,3.854e+04,2.201e+03,5.850e+04
187.3,1.801e+04,3.811e+04,2.390e+03,5.850e+04
188.8,1.835e+04,3.710e+04,2.528e+03,5.798e+04
190.4,1.905e+04,3.568e+04,2.495e+03,5.723e+04
191.9,2.001e+04,3.477e+04,2.379e+03,5.715e+04
193.5,2.076e+04,3.422e+04,2.277e+03,5.726e+04
195.0,2.309e+04,3.827e+04,2.423e+03,6.379e+04
196.6,2.479e+04,4.263e+04,2.975e+03,7.039e+04
198.1,2.768e+04,4.150e+04,3.298e+03,7.248e+04
199.7,2.803e+04,4.273e+04,3.315e+03,7.408e+04
